% Freq            Impedance       Phase
1.029    	4.616    	0.314    
1.059    	4.616    	0.314    
1.091    	4.616    	0.314    
1.122    	4.616    	0.314    
1.155    	4.616    	0.314    
1.189    	4.616    	0.314    
1.224    	4.616    	0.314    
1.260    	4.616    	0.314    
1.297    	4.616    	0.314    
1.335    	4.608    	0.300    
1.374    	4.608    	0.300    
1.414    	4.608    	0.300    
1.456    	4.608    	0.300    
1.498    	4.608    	0.300    
1.542    	4.608    	0.300    
1.587    	4.608    	0.300    
1.634    	4.608    	0.300    
1.682    	4.603    	0.294    
1.731    	4.603    	0.294    
1.782    	4.603    	0.294    
1.834    	4.603    	0.294    
1.888    	4.603    	0.294    
1.943    	4.603    	0.294    
2.000    	4.604    	0.294    
2.059    	4.604    	0.294    
2.119    	4.604    	0.294    
2.181    	4.604    	0.294    
2.245    	4.604    	0.294    
2.311    	4.604    	0.294    
2.378    	4.608    	0.293    
2.448    	4.608    	0.293    
2.520    	4.608    	0.293    
2.594    	4.608    	0.293    
2.670    	4.612    	0.287    
2.748    	4.612    	0.287    
2.828    	4.612    	0.287    
2.911    	4.612    	0.287    
2.997    	4.615    	0.277    
3.084    	4.615    	0.277    
3.175    	4.615    	0.277    
3.268    	4.615    	0.277    
3.364    	4.623    	0.262    
3.462    	4.623    	0.262    
3.564    	4.623    	0.262    
3.668    	4.622    	0.239    
3.775    	4.622    	0.239    
3.886    	4.622    	0.239    
4.000    	4.623    	0.213    
4.117    	4.623    	0.213    
4.238    	4.623    	0.213    
4.362    	4.612    	0.187    
4.490    	4.612    	0.187    
4.621    	4.612    	0.187    
4.757    	4.605    	0.162    
4.896    	4.605    	0.162    
5.040    	4.601    	0.135    
5.187    	4.601    	0.135    
5.339    	4.604    	0.113    
5.496    	4.604    	0.113    
5.657    	4.612    	0.110    
5.823    	4.612    	0.110    
5.993    	4.617    	0.123    
6.169    	4.617    	0.123    
6.350    	4.618    	0.133    
6.536    	4.618    	0.133    
6.727    	4.618    	0.137    
6.924    	4.618    	0.137    
7.127    	4.618    	0.143    
7.336    	4.616    	0.151    
7.551    	4.616    	0.151    
7.772    	4.615    	0.152    
8.000    	4.613    	0.146    
8.234    	4.613    	0.146    
8.476    	4.611    	0.140    
8.724    	4.609    	0.140    
8.980    	4.608    	0.144    
9.243    	4.608    	0.144    
9.514    	4.609    	0.149    
9.792    	4.613    	0.159    
10.079    	4.615    	0.175    
10.375    	4.616    	0.195    
10.679    	4.615    	0.212    
10.992    	4.614    	0.223    
11.314    	4.615    	0.227    
11.645    	4.616    	0.230    
11.986    	4.617    	0.237    
12.338    	4.616    	0.250    
12.699    	4.614    	0.261    
13.071    	4.614    	0.265    
13.454    	4.614    	0.265    
13.849    	4.615    	0.266    
14.254    	4.616    	0.272    
14.672    	4.618    	0.279    
15.102    	4.619    	0.275    
15.545    	4.619    	0.273    
16.000    	4.619    	0.284    
16.469    	4.619    	0.298    
16.951    	4.618    	0.303    
17.448    	4.617    	0.321    
17.959    	4.617    	0.351    
18.486    	4.615    	0.365    
19.027    	4.615    	0.370    
19.585    	4.616    	0.371    
20.159    	4.616    	0.362    
20.749    	4.616    	0.369    
21.357    	4.614    	0.394    
21.983    	4.615    	0.415    
22.627    	4.613    	0.421    
23.290    	4.613    	0.425    
23.973    	4.615    	0.430    
24.675    	4.614    	0.448    
25.398    	4.615    	0.472    
26.143    	4.620    	0.483    
26.909    	4.618    	0.504    
27.697    	4.616    	0.519    
28.509    	4.614    	0.529    
29.344    	4.612    	0.549    
30.204    	4.616    	0.562    
31.089    	4.615    	0.566    
32.000    	4.615    	0.574    
32.938    	4.617    	0.609    
33.903    	4.618    	0.644    
34.896    	4.618    	0.664    
35.919    	4.617    	0.678    
36.971    	4.617    	0.692    
38.055    	4.616    	0.707    
39.170    	4.615    	0.736    
40.317    	4.617    	0.761    
41.499    	4.617    	0.780    
42.715    	4.616    	0.797    
43.967    	4.616    	0.825    
45.255    	4.616    	0.866    
46.581    	4.617    	0.905    
47.946    	4.616    	0.899    
49.351    	4.608    	0.837    
50.797    	4.609    	0.874    
52.285    	4.615    	0.972    
53.817    	4.615    	1.011    
55.394    	4.617    	1.036    
57.018    	4.615    	1.090    
58.688    	4.616    	1.126    
60.408    	4.616    	1.164    
62.178    	4.618    	1.144    
64.000    	4.618    	1.190    
65.875    	4.616    	1.234    
67.806    	4.616    	1.274    
69.792    	4.616    	1.317    
71.838    	4.616    	1.353    
73.943    	4.618    	1.403    
76.109    	4.618    	1.413    
78.339    	4.617    	1.454    
80.635    	4.617    	1.521    
82.998    	4.620    	1.572    
85.430    	4.616    	1.595    
87.933    	4.618    	1.634    
90.510    	4.619    	1.688    
93.162    	4.619    	1.747    
95.892    	4.617    	1.787    
98.701    	4.619    	1.802    
101.594    	4.620    	1.885    
104.571    	4.620    	1.960    
107.635    	4.619    	2.010    
110.789    	4.617    	2.075    
114.035    	4.621    	2.097    
117.377    	4.619    	2.169    
120.816    	4.621    	2.271    
124.356    	4.621    	2.319    
128.000    	4.622    	2.395    
131.751    	4.620    	2.457    
135.611    	4.620    	2.548    
139.585    	4.620    	2.642    
143.675    	4.623    	2.702    
147.885    	4.626    	2.761    
152.219    	4.623    	2.830    
156.679    	4.623    	2.895    
161.270    	4.621    	3.009    
165.995    	4.625    	3.112    
170.860    	4.625    	3.186    
175.866    	4.623    	3.279    
181.019    	4.624    	3.370    
186.324    	4.628    	3.482    
191.783    	4.629    	3.583    
197.403    	4.627    	3.717    
203.187    	4.629    	3.827    
209.141    	4.631    	3.922    
215.269    	4.629    	4.046    
221.577    	4.631    	4.157    
228.070    	4.631    	4.290    
234.753    	4.633    	4.362    
241.632    	4.636    	4.514    
248.712    	4.636    	4.676    
256.000    	4.635    	4.760    
263.501    	4.637    	4.881    
271.223    	4.636    	5.082    
279.170    	4.640    	5.190    
287.350    	4.640    	5.372    
295.770    	4.642    	5.520    
304.437    	4.645    	5.706    
313.358    	4.645    	5.858    
322.540    	4.648    	6.033    
331.991    	4.649    	6.193    
341.719    	4.650    	6.388    
351.732    	4.655    	6.578    
362.039    	4.655    	6.756    
372.647    	4.657    	6.952    
383.567    	4.659    	7.131    
394.806    	4.661    	7.359    
406.375    	4.665    	7.584    
418.282    	4.669    	7.783    
430.539    	4.672    	8.033    
443.155    	4.674    	8.257    
456.140    	4.679    	8.470    
469.506    	4.684    	8.714    
483.264    	4.684    	8.986    
497.424    	4.687    	9.234    
512.000    	4.695    	9.499    
527.003    	4.700    	9.748    
542.445    	4.706    	10.035    
558.340    	4.710    	10.348    
574.701    	4.713    	10.648    
591.541    	4.719    	10.948    
608.874    	4.725    	11.265    
626.715    	4.732    	11.582    
645.080    	4.738    	11.900    
663.982    	4.746    	12.257    
683.438    	4.753    	12.580    
703.464    	4.762    	12.957    
724.077    	4.773    	13.329    
745.294    	4.779    	13.697    
767.133    	4.789    	14.084    
789.612    	4.799    	14.495    
812.749    	4.808    	14.896    
836.565    	4.820    	15.318    
861.078    	4.831    	15.722    
886.309    	4.844    	16.156    
912.280    	4.859    	16.638    
939.012    	4.874    	17.043    
966.527    	4.885    	17.568    
994.849    	4.900    	18.069    
1024.000    	4.917    	18.513    
1054.005    	4.934    	19.015    
1084.890    	4.954    	19.514    
1116.680    	4.973    	20.036    
1149.401    	4.996    	20.600    
1183.081    	5.016    	21.132    
1217.748    	5.038    	21.719    
1253.431    	5.060    	22.269    
1290.159    	5.090    	22.885    
1327.964    	5.116    	23.478    
1366.876    	5.141    	24.064    
1406.929    	5.169    	24.701    
1448.155    	5.204    	25.320    
1490.589    	5.235    	25.966    
1534.266    	5.270    	26.610    
1579.224    	5.306    	27.312    
1625.499    	5.343    	27.971    
1673.129    	5.383    	28.687    
1722.156    	5.427    	29.406    
1772.619    	5.472    	30.109    
1824.561    	5.518    	30.840    
1878.024    	5.564    	31.576    
1933.055    	5.616    	32.290    
1989.697    	5.673    	33.079    
2048.000    	5.726    	33.783    
2108.011    	5.787    	34.588    
2169.780    	5.850    	35.347    
2233.360    	5.916    	36.166    
2298.802    	5.983    	36.938    
2366.162    	6.056    	37.723    
2435.496    	6.126    	38.549    
2506.862    	6.207    	39.378    
2580.318    	6.288    	40.160    
2655.927    	6.375    	40.981    
2733.752    	6.468    	41.812    
2813.857    	6.561    	42.617    
2896.309    	6.658    	43.457    
2981.178    	6.757    	44.302    
3068.533    	6.865    	45.118    
3158.448    	6.977    	45.922    
3250.997    	7.093    	46.754    
3346.259    	7.214    	47.570    
3444.312    	7.336    	48.395    
3545.238    	7.469    	49.224    
3649.121    	7.606    	50.053    
3756.049    	7.745    	50.860    
3866.109    	7.891    	51.660    
3979.395    	8.043    	52.465    
4096.000    	8.204    	53.283    
4216.022    	8.369    	54.075    
4339.561    	8.541    	54.855    
4466.720    	8.718    	55.629    
4597.605    	8.901    	56.396    
4732.325    	9.092    	57.157    
4870.992    	9.290    	57.911    
5013.723    	9.496    	58.669    
5160.637    	9.712    	59.379    
5311.855    	9.931    	60.096    
5467.504    	10.158    	60.827    
5627.714    	10.395    	61.508    
5792.619    	10.641    	62.206    
5962.355    	10.896    	62.898    
6137.066    	11.157    	63.557    
6316.896    	11.430    	64.218    
6501.995    	11.710    	64.858    
6692.518    	12.002    	65.503    
6888.623    	12.304    	66.117    
7090.476    	12.615    	66.728    
7298.242    	12.933    	67.335    
7512.097    	13.263    	67.914    
7732.218    	13.604    	68.483    
7958.790    	13.957    	69.046    
8192.000    	14.324    	69.600    
8432.044    	14.699    	70.146    
8679.122    	15.088    	70.665    
8933.439    	15.489    	71.173    
9195.209    	15.903    	71.689    
9464.649    	16.333    	72.184    
9741.985    	16.771    	72.659    
10027.447    	17.221    	73.121    
10321.273    	17.694    	73.590    
10623.710    	18.176    	74.045    
10935.008    	18.676    	74.488    
11255.428    	19.189    	74.914    
11585.238    	19.720    	75.321    
11924.711    	20.266    	75.725    
12274.132    	20.831    	76.126    
12633.791    	21.414    	76.518    
13003.989    	22.009    	76.894    
13385.035    	22.627    	77.261    
13777.247    	23.260    	77.616    
14180.951    	23.913    	77.970    
14596.485    	24.587    	78.312    
15024.194    	25.284    	78.647    
15464.437    	25.997    	78.959    
15917.579    	26.737    	79.284    
16384.000    	27.499    	79.584    
16864.088    	28.278    	79.881    
17358.243    	29.082    	80.169    
17866.879    	29.913    	80.450    
18390.418    	30.773    	80.719    
18929.299    	31.652    	80.992    
19483.969    	32.553    	81.257    
20054.893    	33.488    	81.507    
20642.546    	34.469    	81.753    
