% * This data was exported from the Dayton Audio Test System: DATS
% *
% D    	130	[mm]
% Re   	4.406	[Ohms]
% Fs   	55.15	[Hz]
% Zm   	10.62	[Ohms]
% BL   	3.45	[N/A]
% Qms  	3.155
% Qes  	2.238
% Qts  	1.309
% Vas  	11.81 	[liters]
% L10k 	0.2693	[mH]
% n0   	0.08436	[%]
% dBSPL  	81.36	[1W/1m]
% Ms   	17.45	[grams]
% Cms  	0.477	[mm/N]
% *
% *
% Freq            Impedance       Phase
1.029    	4.425    	0.673    
1.059    	4.425    	0.673    
1.091    	4.425    	0.673    
1.122    	4.425    	0.673    
1.155    	4.425    	0.673    
1.189    	4.425    	0.673    
1.224    	4.425    	0.673    
1.260    	4.425    	0.673    
1.297    	4.425    	0.673    
1.335    	4.417    	0.763    
1.374    	4.417    	0.763    
1.414    	4.417    	0.763    
1.456    	4.417    	0.763    
1.498    	4.417    	0.763    
1.542    	4.417    	0.763    
1.587    	4.417    	0.763    
1.634    	4.417    	0.763    
1.682    	4.411    	0.853    
1.731    	4.411    	0.853    
1.782    	4.411    	0.853    
1.834    	4.411    	0.853    
1.888    	4.411    	0.853    
1.943    	4.411    	0.853    
2.000    	4.411    	0.968    
2.059    	4.411    	0.968    
2.119    	4.411    	0.968    
2.181    	4.411    	0.968    
2.245    	4.411    	0.968    
2.311    	4.411    	0.968    
2.378    	4.414    	1.125    
2.448    	4.414    	1.125    
2.520    	4.414    	1.125    
2.594    	4.414    	1.125    
2.670    	4.415    	1.326    
2.748    	4.415    	1.326    
2.828    	4.415    	1.326    
2.911    	4.415    	1.326    
2.997    	4.414    	1.533    
3.084    	4.414    	1.533    
3.175    	4.414    	1.533    
3.268    	4.414    	1.533    
3.364    	4.422    	1.730    
3.462    	4.422    	1.730    
3.564    	4.422    	1.730    
3.668    	4.427    	1.911    
3.775    	4.427    	1.911    
3.886    	4.427    	1.911    
4.000    	4.436    	2.079    
4.117    	4.436    	2.079    
4.238    	4.436    	2.079    
4.362    	4.435    	2.243    
4.490    	4.435    	2.243    
4.621    	4.435    	2.243    
4.757    	4.435    	2.407    
4.896    	4.435    	2.407    
5.040    	4.432    	2.560    
5.187    	4.432    	2.560    
5.339    	4.433    	2.705    
5.496    	4.433    	2.705    
5.657    	4.439    	2.849    
5.823    	4.439    	2.849    
5.993    	4.448    	3.006    
6.169    	4.448    	3.006    
6.350    	4.457    	3.180    
6.536    	4.457    	3.180    
6.727    	4.465    	3.355    
6.924    	4.465    	3.355    
7.127    	4.471    	3.529    
7.336    	4.474    	3.701    
7.551    	4.474    	3.701    
7.772    	4.473    	3.868    
8.000    	4.472    	4.032    
8.234    	4.472    	4.032    
8.476    	4.472    	4.195    
8.724    	4.476    	4.359    
8.980    	4.481    	4.523    
9.243    	4.481    	4.523    
9.514    	4.485    	4.684    
9.792    	4.489    	4.848    
10.079    	4.492    	5.028    
10.375    	4.495    	5.214    
10.679    	4.499    	5.394    
10.992    	4.503    	5.565    
11.314    	4.507    	5.731    
11.645    	4.512    	5.899    
11.986    	4.516    	6.069    
12.338    	4.520    	6.236    
12.699    	4.524    	6.403    
13.071    	4.528    	6.578    
13.454    	4.532    	6.761    
13.849    	4.537    	6.944    
14.254    	4.542    	7.120    
14.672    	4.551    	7.372    
15.102    	4.562    	7.627    
15.545    	4.569    	7.793    
16.000    	4.579    	8.032    
16.469    	4.590    	8.277    
16.951    	4.600    	8.544    
17.448    	4.609    	8.817    
17.959    	4.618    	9.096    
18.486    	4.629    	9.376    
19.027    	4.640    	9.656    
19.585    	4.654    	10.029    
20.159    	4.667    	10.313    
20.749    	4.679    	10.610    
21.357    	4.698    	11.012    
21.983    	4.715    	11.411    
22.627    	4.731    	11.793    
23.290    	4.753    	12.163    
23.973    	4.777    	12.534    
24.675    	4.802    	12.907    
25.398    	4.825    	13.326    
26.143    	4.849    	13.756    
26.909    	4.885    	14.325    
27.697    	4.924    	14.897    
28.509    	4.957    	15.349    
29.344    	5.000    	15.920    
30.204    	5.055    	16.586    
31.089    	5.110    	17.135    
32.000    	5.170    	17.716    
32.938    	5.240    	18.340    
33.903    	5.323    	19.043    
34.896    	5.413    	19.818    
35.919    	5.511    	20.667    
36.971    	5.624    	21.573    
38.055    	5.759    	22.472    
39.170    	5.953    	23.432    
40.317    	6.187    	24.259    
41.499    	6.461    	24.846    
42.715    	6.783    	25.139    
43.967    	7.146    	25.059    
45.255    	7.609    	24.459    
46.581    	8.109    	23.318    
47.946    	8.619    	21.585    
49.351    	9.142    	19.181    
50.797    	9.690    	15.625    
52.285    	10.158    	11.280    
53.817    	10.491    	6.241    
55.394    	10.594    	0.225    
57.018    	10.385    	-5.180    
58.688    	9.921    	-9.880    
60.408    	9.204    	-14.187    
62.178    	8.523    	-16.781    
64.000    	8.008    	-17.856    
65.875    	7.574    	-18.191    
67.806    	7.187    	-18.206    
69.792    	6.874    	-18.133    
71.838    	6.628    	-18.128    
73.943    	6.418    	-17.954    
76.109    	6.223    	-17.655    
78.339    	6.031    	-17.478    
80.635    	5.854    	-17.278    
82.998    	5.690    	-16.758    
85.430    	5.539    	-15.850    
87.933    	5.405    	-14.918    
90.510    	5.323    	-14.244    
93.162    	5.267    	-13.655    
95.892    	5.189    	-12.900    
98.701    	5.110    	-12.026    
101.594    	5.045    	-11.159    
104.571    	4.974    	-10.256    
107.635    	4.917    	-9.509    
110.789    	4.883    	-8.700    
114.035    	4.852    	-7.805    
117.377    	4.825    	-7.072    
120.816    	4.813    	-6.181    
124.356    	4.775    	-5.389    
128.000    	4.756    	-4.794    
131.751    	4.743    	-4.108    
135.611    	4.736    	-3.552    
139.585    	4.744    	-2.864    
143.675    	4.725    	-2.161    
147.885    	4.727    	-1.680    
152.219    	4.720    	-1.105    
156.679    	4.722    	-0.612    
161.270    	4.716    	0.011    
165.995    	4.718    	0.441    
170.860    	4.722    	1.129    
175.866    	4.722    	1.473    
181.019    	4.731    	2.065    
186.324    	4.733    	2.460    
191.783    	4.739    	3.031    
197.403    	4.753    	3.535    
203.187    	4.757    	3.989    
209.141    	4.765    	4.379    
215.269    	4.772    	4.816    
221.577    	4.787    	5.309    
228.070    	4.793    	5.788    
234.753    	4.806    	6.190    
241.632    	4.820    	6.630    
248.712    	4.834    	7.026    
256.000    	4.848    	7.449    
263.501    	4.863    	7.878    
271.223    	4.878    	8.323    
279.170    	4.894    	8.689    
287.350    	4.912    	9.120    
295.770    	4.928    	9.516    
304.437    	4.944    	9.938    
313.358    	4.964    	10.368    
322.540    	4.982    	10.786    
331.991    	5.005    	11.175    
341.719    	5.021    	11.578    
351.732    	5.042    	11.983    
362.039    	5.064    	12.407    
372.647    	5.086    	12.859    
383.567    	5.109    	13.266    
394.806    	5.135    	13.673    
406.375    	5.162    	14.068    
418.282    	5.189    	14.511    
430.539    	5.211    	14.908    
443.155    	5.240    	15.361    
456.140    	5.268    	15.746    
469.506    	5.298    	16.166    
483.264    	5.331    	16.618    
497.424    	5.359    	17.036    
512.000    	5.394    	17.414    
527.003    	5.428    	17.816    
542.445    	5.464    	18.241    
558.340    	5.498    	18.672    
574.701    	5.531    	19.077    
591.541    	5.566    	19.504    
608.874    	5.608    	19.972    
626.715    	5.645    	20.384    
645.080    	5.686    	20.852    
663.982    	5.728    	21.293    
683.438    	5.776    	21.732    
703.464    	5.820    	22.176    
724.077    	5.867    	22.625    
745.294    	5.917    	23.062    
767.133    	5.967    	23.509    
789.612    	6.023    	23.965    
812.749    	6.076    	24.379    
836.565    	6.133    	24.819    
861.078    	6.187    	25.241    
886.309    	6.250    	25.688    
912.280    	6.315    	26.123    
939.012    	6.380    	26.532    
966.527    	6.447    	26.922    
994.849    	6.514    	27.372    
1024.000    	6.579    	27.726    
1054.005    	6.653    	28.080    
1084.890    	6.733    	28.500    
1116.680    	6.812    	28.823    
1149.401    	6.881    	29.114    
1183.081    	6.948    	29.426    
1217.748    	7.019    	29.752    
1253.431    	7.089    	30.061    
1290.159    	7.156    	30.458    
1327.964    	7.234    	30.802    
1366.876    	7.304    	31.145    
1406.929    	7.367    	31.510    
1448.155    	7.437    	31.896    
1490.589    	7.509    	32.385    
1534.266    	7.590    	32.856    
1579.224    	7.674    	33.358    
1625.499    	7.764    	33.828    
1673.129    	7.858    	34.329    
1722.156    	7.956    	34.789    
1772.619    	8.059    	35.258    
1824.561    	8.168    	35.697    
1878.024    	8.281    	36.150    
1933.055    	8.389    	36.568    
1989.697    	8.508    	37.014    
2048.000    	8.624    	37.397    
2108.011    	8.747    	37.820    
2169.780    	8.873    	38.246    
2233.360    	9.001    	38.640    
2298.802    	9.130    	39.040    
2366.162    	9.268    	39.435    
2435.496    	9.405    	39.833    
2506.862    	9.549    	40.250    
2580.318    	9.697    	40.612    
2655.927    	9.850    	40.982    
2733.752    	10.009    	41.339    
2813.857    	10.172    	41.690    
2896.309    	10.338    	42.035    
2981.178    	10.512    	42.379    
3068.533    	10.689    	42.641    
3158.448    	10.863    	42.838    
3250.997    	11.025    	43.046    
3346.259    	11.181    	43.346    
3444.312    	11.347    	43.693    
3545.238    	11.526    	44.060    
3649.121    	11.715    	44.401    
3756.049    	11.913    	44.763    
3866.109    	12.123    	45.132    
3979.395    	12.351    	45.471    
4096.000    	12.607    	45.765    
4216.022    	12.884    	45.850    
4339.561    	13.126    	45.595    
4466.720    	13.241    	45.357    
4597.605    	13.335    	45.637    
4732.325    	13.492    	46.193    
4870.992    	13.706    	46.691    
5013.723    	13.949    	47.121    
5160.637    	14.204    	47.455    
5311.855    	14.459    	47.734    
5467.504    	14.711    	48.038    
5627.714    	14.985    	48.311    
5792.619    	15.258    	48.515    
5962.355    	15.514    	48.721    
6137.066    	15.776    	48.977    
6316.896    	16.057    	49.234    
6501.995    	16.342    	49.468    
6692.518    	16.643    	49.709    
6888.623    	16.944    	49.921    
7090.476    	17.251    	50.119    
7298.242    	17.559    	50.321    
7512.097    	17.875    	50.529    
7732.218    	18.193    	50.743    
7958.790    	18.526    	50.950    
8192.000    	18.865    	51.144    
8432.044    	19.215    	51.326    
8679.122    	19.567    	51.498    
8933.439    	19.921    	51.656    
9195.209    	20.290    	51.834    
9464.649    	20.662    	52.002    
9741.985    	21.038    	52.171    
10027.447    	21.429    	52.323    
10321.273    	21.827    	52.486    
10623.710    	22.230    	52.631    
10935.008    	22.648    	52.779    
11255.428    	23.073    	52.905    
11585.238    	23.501    	53.025    
11924.711    	23.934    	53.148    
12274.132    	24.380    	53.269    
12633.791    	24.832    	53.363    
13003.989    	25.276    	53.471    
13385.035    	25.736    	53.611    
13777.247    	26.220    	53.727    
14180.951    	26.690    	53.844    
14596.485    	27.188    	53.981    
15024.194    	27.692    	54.081    
15464.437    	28.208    	54.190    
15917.579    	28.735    	54.290    
16384.000    	29.270    	54.388    
16864.088    	29.811    	54.482    
17358.243    	30.355    	54.563    
17866.879    	30.894    	54.650    
18390.418    	31.426    	54.730    
18929.299    	31.958    	54.810    
19483.969    	32.487    	54.896    
20054.893    	33.002    	54.974    
20642.546    	33.497    	55.077    
