% * This data was exported from the Dayton Audio Test System: DATS
% *
% D    	130	[mm]
% Re   	4.171	[Ohms]
% Fs   	52.69	[Hz]
% Zm   	8.861	[Ohms]
% BL   	3.576	[N/A]
% Qms  	2.519
% Qes  	2.241
% Qts  	1.186
% Vas  	10.88 	[liters]
% L10k 	0.2204	[mH]
% n0   	0.0677	[%]
% dBSPL  	80.41	[1W/1m]
% Ms   	20.75	[grams]
% Cms  	0.44	[mm/N]
% *
% *
% Freq            Impedance       Phase
1.029    	4.184    	0.471    
1.059    	4.184    	0.471    
1.091    	4.184    	0.471    
1.122    	4.184    	0.471    
1.155    	4.184    	0.471    
1.189    	4.184    	0.471    
1.224    	4.184    	0.471    
1.260    	4.184    	0.471    
1.297    	4.184    	0.471    
1.335    	4.179    	0.589    
1.374    	4.179    	0.589    
1.414    	4.179    	0.589    
1.456    	4.179    	0.589    
1.498    	4.179    	0.589    
1.542    	4.179    	0.589    
1.587    	4.179    	0.589    
1.634    	4.179    	0.589    
1.682    	4.177    	0.693    
1.731    	4.177    	0.693    
1.782    	4.177    	0.693    
1.834    	4.177    	0.693    
1.888    	4.177    	0.693    
1.943    	4.177    	0.693    
2.000    	4.180    	0.840    
2.059    	4.180    	0.840    
2.119    	4.180    	0.840    
2.181    	4.180    	0.840    
2.245    	4.180    	0.840    
2.311    	4.180    	0.840    
2.378    	4.184    	1.008    
2.448    	4.184    	1.008    
2.520    	4.184    	1.008    
2.594    	4.184    	1.008    
2.670    	4.188    	1.206    
2.748    	4.188    	1.206    
2.828    	4.188    	1.206    
2.911    	4.188    	1.206    
2.997    	4.189    	1.380    
3.084    	4.189    	1.380    
3.175    	4.189    	1.380    
3.268    	4.189    	1.380    
3.364    	4.195    	1.552    
3.462    	4.195    	1.552    
3.564    	4.195    	1.552    
3.668    	4.194    	1.720    
3.775    	4.194    	1.720    
3.886    	4.194    	1.720    
4.000    	4.197    	1.874    
4.117    	4.197    	1.874    
4.238    	4.197    	1.874    
4.362    	4.193    	2.027    
4.490    	4.193    	2.027    
4.621    	4.193    	2.027    
4.757    	4.195    	2.186    
4.896    	4.195    	2.186    
5.040    	4.194    	2.332    
5.187    	4.194    	2.332    
5.339    	4.197    	2.457    
5.496    	4.197    	2.457    
5.657    	4.204    	2.565    
5.823    	4.204    	2.565    
5.993    	4.215    	2.680    
6.169    	4.215    	2.680    
6.350    	4.226    	2.823    
6.536    	4.226    	2.823    
6.727    	4.234    	2.979    
6.924    	4.234    	2.979    
7.127    	4.239    	3.134    
7.336    	4.242    	3.295    
7.551    	4.242    	3.295    
7.772    	4.241    	3.464    
8.000    	4.239    	3.637    
8.234    	4.239    	3.637    
8.476    	4.239    	3.810    
8.724    	4.242    	3.978    
8.980    	4.247    	4.141    
9.243    	4.247    	4.141    
9.514    	4.253    	4.299    
9.792    	4.259    	4.456    
10.079    	4.264    	4.617    
10.375    	4.268    	4.776    
10.679    	4.269    	4.922    
10.992    	4.267    	5.056    
11.314    	4.267    	5.180    
11.645    	4.268    	5.298    
11.986    	4.272    	5.411    
12.338    	4.279    	5.523    
12.699    	4.285    	5.641    
13.071    	4.292    	5.771    
13.454    	4.299    	5.912    
13.849    	4.307    	6.060    
14.254    	4.317    	6.212    
14.672    	4.333    	6.453    
15.102    	4.352    	6.727    
15.545    	4.363    	6.930    
16.000    	4.373    	7.221    
16.469    	4.382    	7.515    
16.951    	4.389    	7.827    
17.448    	4.393    	8.102    
17.959    	4.396    	8.341    
18.486    	4.399    	8.570    
19.027    	4.408    	8.774    
19.585    	4.427    	9.034    
20.159    	4.445    	9.234    
20.749    	4.466    	9.457    
21.357    	4.489    	9.786    
21.983    	4.505    	10.124    
22.627    	4.520    	10.470    
23.290    	4.536    	10.803    
23.973    	4.557    	11.118    
24.675    	4.586    	11.446    
25.398    	4.620    	11.826    
26.143    	4.652    	12.250    
26.909    	4.684    	12.865    
27.697    	4.712    	13.447    
28.509    	4.731    	13.820    
29.344    	4.760    	14.122    
30.204    	4.816    	14.377    
31.089    	4.888    	14.663    
32.000    	4.972    	15.168    
32.938    	5.057    	15.852    
33.903    	5.150    	16.660    
34.896    	5.250    	17.548    
35.919    	5.348    	18.470    
36.971    	5.437    	19.251    
38.055    	5.542    	19.723    
39.170    	5.717    	19.909    
40.317    	5.945    	19.914    
41.499    	6.206    	19.807    
42.715    	6.503    	19.529    
43.967    	6.834    	18.968    
45.255    	7.191    	18.248    
46.581    	7.478    	16.759    
47.946    	7.775    	14.112    
49.351    	8.149    	10.887    
50.797    	8.579    	7.289    
52.285    	8.839    	4.280    
53.817    	8.762    	1.060    
55.394    	8.485    	-3.683    
57.018    	8.203    	-7.766    
58.688    	7.872    	-11.065    
60.408    	7.468    	-14.002    
62.178    	7.162    	-15.709    
64.000    	6.932    	-15.683    
65.875    	6.585    	-15.268    
67.806    	6.276    	-15.770    
69.792    	6.146    	-16.205    
71.838    	6.045    	-15.418    
73.943    	5.803    	-14.852    
76.109    	5.580    	-15.821    
78.339    	5.513    	-16.582    
80.635    	5.445    	-15.728    
82.998    	5.301    	-14.289    
85.430    	5.140    	-13.591    
87.933    	5.058    	-13.291    
90.510    	4.993    	-12.500    
93.162    	4.913    	-12.355    
95.892    	4.871    	-12.126    
98.701    	4.855    	-11.275    
101.594    	4.786    	-9.682    
104.571    	4.656    	-9.275    
107.635    	4.658    	-8.959    
110.789    	4.589    	-8.114    
114.035    	4.584    	-7.773    
117.377    	4.581    	-6.864    
120.816    	4.524    	-5.777    
124.356    	4.486    	-5.686    
128.000    	4.490    	-5.147    
131.751    	4.484    	-4.513    
135.611    	4.485    	-3.820    
139.585    	4.444    	-3.064    
143.675    	4.444    	-2.928    
147.885    	4.446    	-2.204    
152.219    	4.433    	-1.716    
156.679    	4.431    	-1.332    
161.270    	4.423    	-0.834    
165.995    	4.427    	-0.277    
170.860    	4.416    	0.106    
175.866    	4.433    	0.608    
181.019    	4.422    	1.017    
186.324    	4.435    	1.345    
191.783    	4.429    	1.885    
197.403    	4.429    	2.314    
203.187    	4.440    	2.713    
209.141    	4.441    	3.151    
215.269    	4.453    	3.530    
221.577    	4.456    	3.992    
228.070    	4.461    	4.378    
234.753    	4.471    	4.780    
241.632    	4.479    	5.098    
248.712    	4.487    	5.535    
256.000    	4.494    	5.882    
263.501    	4.504    	6.309    
271.223    	4.515    	6.714    
279.170    	4.526    	7.068    
287.350    	4.542    	7.431    
295.770    	4.548    	7.838    
304.437    	4.562    	8.238    
313.358    	4.574    	8.612    
322.540    	4.587    	8.974    
331.991    	4.605    	9.363    
341.719    	4.618    	9.711    
351.732    	4.632    	10.123    
362.039    	4.648    	10.475    
372.647    	4.663    	10.922    
383.567    	4.683    	11.263    
394.806    	4.699    	11.655    
406.375    	4.715    	12.051    
418.282    	4.737    	12.433    
430.539    	4.756    	12.814    
443.155    	4.780    	13.237    
456.140    	4.802    	13.609    
469.506    	4.822    	14.015    
483.264    	4.846    	14.437    
497.424    	4.870    	14.838    
512.000    	4.896    	15.190    
527.003    	4.922    	15.567    
542.445    	4.949    	15.982    
558.340    	4.975    	16.401    
574.701    	5.002    	16.781    
591.541    	5.031    	17.188    
608.874    	5.061    	17.612    
626.715    	5.092    	18.049    
645.080    	5.124    	18.460    
663.982    	5.156    	18.886    
683.438    	5.193    	19.308    
703.464    	5.230    	19.766    
724.077    	5.268    	20.176    
745.294    	5.304    	20.567    
767.133    	5.348    	21.017    
789.612    	5.393    	21.465    
812.749    	5.436    	21.853    
836.565    	5.483    	22.267    
861.078    	5.529    	22.684    
886.309    	5.581    	23.064    
912.280    	5.637    	23.481    
939.012    	5.690    	23.822    
966.527    	5.744    	24.149    
994.849    	5.800    	24.519    
1024.000    	5.850    	24.800    
1054.005    	5.906    	25.093    
1084.890    	5.959    	25.408    
1116.680    	6.006    	25.636    
1149.401    	6.047    	25.987    
1183.081    	6.095    	26.350    
1217.748    	6.143    	26.687    
1253.431    	6.191    	27.068    
1290.159    	6.234    	27.498    
1327.964    	6.284    	27.954    
1366.876    	6.340    	28.448    
1406.929    	6.397    	28.928    
1448.155    	6.463    	29.382    
1490.589    	6.530    	29.849    
1534.266    	6.595    	30.296    
1579.224    	6.668    	30.796    
1625.499    	6.740    	31.280    
1673.129    	6.815    	31.726    
1722.156    	6.895    	32.203    
1772.619    	6.977    	32.661    
1824.561    	7.062    	33.104    
1878.024    	7.151    	33.570    
1933.055    	7.238    	34.005    
1989.697    	7.337    	34.484    
2048.000    	7.432    	34.898    
2108.011    	7.532    	35.329    
2169.780    	7.630    	35.749    
2233.360    	7.735    	36.169    
2298.802    	7.839    	36.569    
2366.162    	7.949    	36.980    
2435.496    	8.060    	37.398    
2506.862    	8.177    	37.823    
2580.318    	8.299    	38.206    
2655.927    	8.420    	38.594    
2733.752    	8.549    	38.973    
2813.857    	8.679    	39.351    
2896.309    	8.815    	39.703    
2981.178    	8.945    	40.041    
3068.533    	9.082    	40.358    
3158.448    	9.220    	40.693    
3250.997    	9.364    	41.061    
3346.259    	9.514    	41.420    
3444.312    	9.672    	41.781    
3545.238    	9.844    	42.105    
3649.121    	10.027    	42.351    
3756.049    	10.214    	42.455    
3866.109    	10.372    	42.392    
3979.395    	10.478    	42.444    
4096.000    	10.594    	42.764    
4216.022    	10.733    	43.124    
4339.561    	10.879    	43.456    
4466.720    	11.034    	43.813    
4597.605    	11.199    	44.174    
4732.325    	11.370    	44.559    
4870.992    	11.551    	44.937    
5013.723    	11.740    	45.310    
5160.637    	11.942    	45.660    
5311.855    	12.151    	45.964    
5467.504    	12.352    	46.239    
5627.714    	12.562    	46.530    
5792.619    	12.776    	46.841    
5962.355    	13.001    	47.144    
6137.066    	13.227    	47.409    
6316.896    	13.465    	47.665    
6501.995    	13.700    	47.882    
6692.518    	13.939    	48.121    
6888.623    	14.181    	48.351    
7090.476    	14.426    	48.563    
7298.242    	14.676    	48.790    
7512.097    	14.930    	49.012    
7732.218    	15.184    	49.262    
7958.790    	15.453    	49.499    
8192.000    	15.725    	49.723    
8432.044    	16.005    	49.941    
8679.122    	16.291    	50.164    
8933.439    	16.583    	50.377    
9195.209    	16.886    	50.592    
9464.649    	17.192    	50.788    
9741.985    	17.502    	50.983    
10027.447    	17.824    	51.174    
10321.273    	18.148    	51.367    
10623.710    	18.482    	51.536    
10935.008    	18.824    	51.708    
11255.428    	19.170    	51.880    
11585.238    	19.525    	52.029    
11924.711    	19.885    	52.160    
12274.132    	20.244    	52.300    
12633.791    	20.612    	52.447    
13003.989    	20.983    	52.594    
13385.035    	21.363    	52.746    
13777.247    	21.755    	52.902    
14180.951    	22.157    	53.053    
14596.485    	22.564    	53.197    
15024.194    	22.979    	53.322    
15464.437    	23.405    	53.442    
15917.579    	23.836    	53.566    
16384.000    	24.277    	53.683    
16864.088    	24.723    	53.807    
17358.243    	25.173    	53.913    
17866.879    	25.625    	54.020    
18390.418    	26.073    	54.120    
18929.299    	26.517    	54.224    
19483.969    	26.961    	54.330    
20054.893    	27.408    	54.435    
20642.546    	27.823    	54.576    
