% * This data was exported from the Dayton Audio Test System: DATS
% *
% D    	130	[mm]
% Re   	4.191	[Ohms]
% Fs   	30.68	[Hz]
% Zm   	6.918	[Ohms]
% BL   	0	[N/A]
% Qms  	0.5716
% Qes  	0.8781
% Qts  	0.3462
% Vas  	0 	[liters]
% L10k 	0.2423	[mH]
% n0   	0	[%]
% dBSPL  	0	[1W/1m]
% Ms   	0	[grams]
% Cms  	0	[mm/N]
% *
% *
% Freq            Impedance       Phase
1.029    	4.211    	1.555    
1.059    	4.211    	1.555    
1.091    	4.211    	1.555    
1.122    	4.211    	1.555    
1.155    	4.211    	1.555    
1.189    	4.211    	1.555    
1.224    	4.211    	1.555    
1.260    	4.211    	1.555    
1.297    	4.211    	1.555    
1.335    	4.203    	1.641    
1.374    	4.203    	1.641    
1.414    	4.203    	1.641    
1.456    	4.203    	1.641    
1.498    	4.203    	1.641    
1.542    	4.203    	1.641    
1.587    	4.203    	1.641    
1.634    	4.203    	1.641    
1.682    	4.197    	1.744    
1.731    	4.197    	1.744    
1.782    	4.197    	1.744    
1.834    	4.197    	1.744    
1.888    	4.197    	1.744    
1.943    	4.197    	1.744    
2.000    	4.194    	1.888    
2.059    	4.194    	1.888    
2.119    	4.194    	1.888    
2.181    	4.194    	1.888    
2.245    	4.194    	1.888    
2.311    	4.194    	1.888    
2.378    	4.196    	2.061    
2.448    	4.196    	2.061    
2.520    	4.196    	2.061    
2.594    	4.196    	2.061    
2.670    	4.198    	2.287    
2.748    	4.198    	2.287    
2.828    	4.198    	2.287    
2.911    	4.198    	2.287    
2.997    	4.201    	2.530    
3.084    	4.201    	2.530    
3.175    	4.201    	2.530    
3.268    	4.201    	2.530    
3.364    	4.210    	2.812    
3.462    	4.210    	2.812    
3.564    	4.210    	2.812    
3.668    	4.211    	3.114    
3.775    	4.211    	3.114    
3.886    	4.211    	3.114    
4.000    	4.215    	3.412    
4.117    	4.215    	3.412    
4.238    	4.215    	3.412    
4.362    	4.210    	3.711    
4.490    	4.210    	3.711    
4.621    	4.210    	3.711    
4.757    	4.212    	4.007    
4.896    	4.212    	4.007    
5.040    	4.218    	4.288    
5.187    	4.218    	4.288    
5.339    	4.229    	4.555    
5.496    	4.229    	4.555    
5.657    	4.243    	4.799    
5.823    	4.243    	4.799    
5.993    	4.257    	5.030    
6.169    	4.257    	5.030    
6.350    	4.268    	5.266    
6.536    	4.268    	5.266    
6.727    	4.276    	5.509    
6.924    	4.276    	5.509    
7.127    	4.282    	5.765    
7.336    	4.287    	6.035    
7.551    	4.287    	6.035    
7.772    	4.293    	6.308    
8.000    	4.302    	6.584    
8.234    	4.302    	6.584    
8.476    	4.316    	6.867    
8.724    	4.332    	7.162    
8.980    	4.346    	7.468    
9.243    	4.346    	7.468    
9.514    	4.360    	7.772    
9.792    	4.373    	8.079    
10.079    	4.386    	8.401    
10.375    	4.400    	8.731    
10.679    	4.415    	9.057    
10.992    	4.429    	9.376    
11.314    	4.444    	9.687    
11.645    	4.459    	9.993    
11.986    	4.475    	10.295    
12.338    	4.495    	10.590    
12.699    	4.517    	10.882    
13.071    	4.539    	11.174    
13.454    	4.560    	11.466    
13.849    	4.582    	11.763    
14.254    	4.605    	12.063    
14.672    	4.644    	12.502    
15.102    	4.688    	12.927    
15.545    	4.719    	13.207    
16.000    	4.764    	13.616    
16.469    	4.810    	14.008    
16.951    	4.863    	14.389    
17.448    	4.924    	14.761    
17.959    	4.992    	15.104    
18.486    	5.060    	15.409    
19.027    	5.134    	15.681    
19.585    	5.239    	15.987    
20.159    	5.325    	16.151    
20.749    	5.416    	16.273    
21.357    	5.543    	16.339    
21.983    	5.672    	16.283    
22.627    	5.801    	16.105    
23.290    	5.932    	15.764    
23.973    	6.060    	15.259    
24.675    	6.188    	14.574    
25.398    	6.314    	13.756    
26.143    	6.438    	12.822    
26.909    	6.583    	11.570    
27.697    	6.715    	10.294    
28.509    	6.799    	9.291    
29.344    	6.872    	8.062    
30.204    	6.914    	6.555    
31.089    	6.915    	5.260    
32.000    	6.893    	3.854    
32.938    	6.853    	2.382    
33.903    	6.802    	0.927    
34.896    	6.749    	-0.330    
35.919    	6.685    	-1.356    
36.971    	6.610    	-2.182    
38.055    	6.528    	-2.866    
39.170    	6.426    	-3.538    
40.317    	6.325    	-4.112    
41.499    	6.227    	-4.576    
42.715    	6.138    	-4.965    
43.967    	6.068    	-5.326    
45.255    	5.986    	-5.588    
46.581    	5.924    	-5.463    
47.946    	5.867    	-5.065    
49.351    	5.839    	-4.828    
50.797    	5.784    	-4.927    
52.285    	5.712    	-5.152    
53.817    	5.673    	-5.172    
55.394    	5.636    	-5.043    
57.018    	5.599    	-4.928    
58.688    	5.566    	-4.775    
60.408    	5.522    	-4.625    
62.178    	5.492    	-4.510    
64.000    	5.487    	-4.439    
65.875    	5.479    	-4.161    
67.806    	5.467    	-3.813    
69.792    	5.432    	-3.658    
71.838    	5.416    	-3.716    
73.943    	5.420    	-3.659    
76.109    	5.422    	-3.410    
78.339    	5.401    	-3.239    
80.635    	5.390    	-3.424    
82.998    	5.416    	-3.591    
85.430    	5.435    	-3.548    
87.933    	5.409    	-3.412    
90.510    	5.385    	-3.770    
93.162    	5.402    	-4.249    
95.892    	5.402    	-4.317    
98.701    	5.361    	-4.553    
101.594    	5.318    	-5.133    
104.571    	5.315    	-5.399    
107.635    	5.250    	-5.393    
110.789    	5.173    	-5.838    
114.035    	5.134    	-6.053    
117.377    	5.074    	-5.704    
120.816    	4.998    	-5.306    
124.356    	5.023    	-5.393    
128.000    	4.975    	-5.999    
131.751    	4.828    	-5.968    
135.611    	4.754    	-5.202    
139.585    	4.690    	-4.450    
143.675    	4.664    	-3.714    
147.885    	4.656    	-3.000    
152.219    	4.649    	-2.933    
156.679    	4.595    	-2.758    
161.270    	4.542    	-2.070    
165.995    	4.516    	-1.292    
170.860    	4.507    	-0.600    
175.866    	4.489    	0.076    
181.019    	4.483    	0.673    
186.324    	4.484    	1.299    
191.783    	4.484    	1.945    
197.403    	4.490    	2.534    
203.187    	4.497    	2.974    
209.141    	4.498    	3.413    
215.269    	4.503    	3.942    
221.577    	4.510    	4.461    
228.070    	4.521    	4.949    
234.753    	4.526    	5.403    
241.632    	4.542    	5.858    
248.712    	4.553    	6.326    
256.000    	4.563    	6.724    
263.501    	4.574    	7.178    
271.223    	4.588    	7.636    
279.170    	4.603    	8.056    
287.350    	4.616    	8.506    
295.770    	4.634    	8.951    
304.437    	4.649    	9.350    
313.358    	4.668    	9.763    
322.540    	4.684    	10.210    
331.991    	4.701    	10.658    
341.719    	4.721    	11.081    
351.732    	4.742    	11.463    
362.039    	4.763    	11.906    
372.647    	4.785    	12.296    
383.567    	4.811    	12.709    
394.806    	4.830    	13.050    
406.375    	4.853    	13.483    
418.282    	4.879    	13.893    
430.539    	4.903    	14.271    
443.155    	4.926    	14.718    
456.140    	4.952    	15.080    
469.506    	4.977    	15.489    
483.264    	5.003    	15.879    
497.424    	5.030    	16.328    
512.000    	5.056    	16.719    
527.003    	5.088    	17.132    
542.445    	5.119    	17.562    
558.340    	5.152    	18.023    
574.701    	5.186    	18.431    
591.541    	5.218    	18.839    
608.874    	5.256    	19.280    
626.715    	5.289    	19.690    
645.080    	5.329    	20.135    
663.982    	5.368    	20.580    
683.438    	5.408    	20.982    
703.464    	5.446    	21.422    
724.077    	5.489    	21.843    
745.294    	5.532    	22.299    
767.133    	5.578    	22.721    
789.612    	5.624    	23.156    
812.749    	5.673    	23.593    
836.565    	5.723    	24.063    
861.078    	5.778    	24.521    
886.309    	5.831    	24.942    
912.280    	5.882    	25.367    
939.012    	5.936    	25.787    
966.527    	5.997    	26.265    
994.849    	6.062    	26.755    
1024.000    	6.126    	27.123    
1054.005    	6.195    	27.543    
1084.890    	6.266    	27.976    
1116.680    	6.344    	28.396    
1149.401    	6.425    	28.749    
1183.081    	6.509    	29.064    
1217.748    	6.590    	29.285    
1253.431    	6.662    	29.435    
1290.159    	6.715    	29.623    
1327.964    	6.769    	29.935    
1366.876    	6.829    	30.302    
1406.929    	6.897    	30.606    
1448.155    	6.959    	30.926    
1490.589    	7.011    	31.314    
1534.266    	7.075    	31.785    
1579.224    	7.149    	32.306    
1625.499    	7.224    	32.814    
1673.129    	7.305    	33.280    
1722.156    	7.392    	33.752    
1772.619    	7.485    	34.235    
1824.561    	7.579    	34.709    
1878.024    	7.674    	35.149    
1933.055    	7.776    	35.603    
1989.697    	7.887    	36.088    
2048.000    	7.991    	36.501    
2108.011    	8.102    	36.936    
2169.780    	8.216    	37.347    
2233.360    	8.331    	37.778    
2298.802    	8.454    	38.180    
2366.162    	8.582    	38.589    
2435.496    	8.707    	38.972    
2506.862    	8.837    	39.359    
2580.318    	8.973    	39.739    
2655.927    	9.111    	40.131    
2733.752    	9.253    	40.498    
2813.857    	9.401    	40.885    
2896.309    	9.551    	41.263    
2981.178    	9.708    	41.664    
3068.533    	9.877    	42.020    
3158.448    	10.052    	42.363    
3250.997    	10.240    	42.670    
3346.259    	10.441    	42.884    
3444.312    	10.639    	43.001    
3545.238    	10.822    	42.959    
3649.121    	10.958    	42.910    
3756.049    	11.071    	43.089    
3866.109    	11.205    	43.473    
3979.395    	11.378    	43.906    
4096.000    	11.570    	44.274    
4216.022    	11.780    	44.601    
4339.561    	12.017    	44.823    
4466.720    	12.257    	44.804    
4597.605    	12.439    	44.568    
4732.325    	12.536    	44.468    
4870.992    	12.613    	44.796    
5013.723    	12.749    	45.395    
5160.637    	12.950    	45.941    
5311.855    	13.168    	46.404    
5467.504    	13.402    	46.831    
5627.714    	13.651    	47.166    
5792.619    	13.894    	47.450    
5962.355    	14.135    	47.763    
6137.066    	14.395    	48.053    
6316.896    	14.654    	48.307    
6501.995    	14.913    	48.529    
6692.518    	15.174    	48.780    
6888.623    	15.443    	49.038    
7090.476    	15.724    	49.290    
7298.242    	16.015    	49.524    
7512.097    	16.302    	49.731    
7732.218    	16.603    	49.940    
7958.790    	16.908    	50.129    
8192.000    	17.212    	50.319    
8432.044    	17.520    	50.516    
8679.122    	17.842    	50.718    
8933.439    	18.171    	50.904    
9195.209    	18.503    	51.080    
9464.649    	18.844    	51.245    
9741.985    	19.189    	51.403    
10027.447    	19.536    	51.554    
10321.273    	19.898    	51.713    
10623.710    	20.261    	51.858    
10935.008    	20.632    	52.009    
11255.428    	21.009    	52.158    
11585.238    	21.397    	52.293    
11924.711    	21.794    	52.432    
12274.132    	22.199    	52.572    
12633.791    	22.600    	52.687    
13003.989    	23.015    	52.817    
13385.035    	23.443    	52.939    
13777.247    	23.871    	53.055    
14180.951    	24.311    	53.167    
14596.485    	24.758    	53.274    
15024.194    	25.212    	53.380    
15464.437    	25.673    	53.491    
15917.579    	26.149    	53.591    
16384.000    	26.629    	53.681    
16864.088    	27.118    	53.777    
17358.243    	27.601    	53.864    
17866.879    	28.089    	53.958    
18390.418    	28.563    	54.037    
18929.299    	29.038    	54.118    
19483.969    	29.497    	54.188    
20054.893    	29.950    	54.278    
20642.546    	30.372    	54.382    
